energy (eV)     n/eV
      1.2600E+07    3.2614E-11
      1.2610E+07    3.7630E-11
      1.2620E+07    4.3375E-11
      1.2630E+07    4.9949E-11
      1.2640E+07    5.7463E-11
      1.2650E+07    6.6043E-11
      1.2660E+07    7.5829E-11
      1.2670E+07    8.6981E-11
      1.2680E+07    9.9676E-11
      1.2690E+07    1.1411E-10
      1.2700E+07    1.3051E-10
      1.2710E+07    1.4912E-10
      1.2720E+07    1.7022E-10
      1.2730E+07    1.9411E-10
      1.2740E+07    2.2114E-10
      1.2750E+07    2.5169E-10
      1.2760E+07    2.8618E-10
      1.2770E+07    3.2507E-10
      1.2780E+07    3.6890E-10
      1.2790E+07    4.1822E-10
      1.2800E+07    4.7367E-10
      1.2810E+07    5.3596E-10
      1.2820E+07    6.0584E-10
      1.2830E+07    6.8416E-10
      1.2840E+07    7.7186E-10
      1.2850E+07    8.6994E-10
      1.2860E+07    9.7954E-10
      1.2870E+07    1.1019E-09
      1.2880E+07    1.2383E-09
      1.2890E+07    1.3902E-09
      1.2900E+07    1.5592E-09
      1.2910E+07    1.7471E-09
      1.2920E+07    1.9557E-09
      1.2930E+07    2.1870E-09
      1.2940E+07    2.4434E-09
      1.2950E+07    2.7271E-09
      1.2960E+07    3.0409E-09
      1.2970E+07    3.3873E-09
      1.2980E+07    3.7696E-09
      1.2990E+07    4.1910E-09
      1.3000E+07    4.6549E-09
      1.3010E+07    5.1651E-09
      1.3020E+07    5.7256E-09
      1.3030E+07    6.3408E-09
      1.3040E+07    7.0152E-09
      1.3050E+07    7.7537E-09
      1.3060E+07    8.5617E-09
      1.3070E+07    9.4446E-09
      1.3080E+07    1.0408E-08
      1.3090E+07    1.1459E-08
      1.3100E+07    1.2604E-08
      1.3110E+07    1.3850E-08
      1.3120E+07    1.5203E-08
      1.3130E+07    1.6673E-08
      1.3140E+07    1.8267E-08
      1.3150E+07    1.9994E-08
      1.3160E+07    2.1863E-08
      1.3170E+07    2.3883E-08
      1.3180E+07    2.6065E-08
      1.3190E+07    2.8417E-08
      1.3200E+07    3.0952E-08
      1.3210E+07    3.3681E-08
      1.3220E+07    3.6614E-08
      1.3230E+07    3.9763E-08
      1.3240E+07    4.3141E-08
      1.3250E+07    4.6761E-08
      1.3260E+07    5.0635E-08
      1.3270E+07    5.4776E-08
      1.3280E+07    5.9198E-08
      1.3290E+07    6.3915E-08
      1.3300E+07    6.8940E-08
      1.3310E+07    7.4287E-08
      1.3320E+07    7.9971E-08
      1.3330E+07    8.6007E-08
      1.3340E+07    9.2407E-08
      1.3350E+07    9.9186E-08
      1.3360E+07    1.0636E-07
      1.3370E+07    1.1394E-07
      1.3380E+07    1.2194E-07
      1.3390E+07    1.3038E-07
      1.3400E+07    1.3926E-07
      1.3410E+07    1.4861E-07
      1.3420E+07    1.5842E-07
      1.3430E+07    1.6872E-07
      1.3440E+07    1.7952E-07
      1.3450E+07    1.9081E-07
      1.3460E+07    2.0262E-07
      1.3470E+07    2.1496E-07
      1.3480E+07    2.2782E-07
      1.3490E+07    2.4121E-07
      1.3500E+07    2.5514E-07
      1.3510E+07    2.6962E-07
      1.3520E+07    2.8463E-07
      1.3530E+07    3.0019E-07
      1.3540E+07    3.1629E-07
      1.3550E+07    3.3293E-07
      1.3560E+07    3.5010E-07
      1.3570E+07    3.6780E-07
      1.3580E+07    3.8602E-07
      1.3590E+07    4.0474E-07
      1.3600E+07    4.2396E-07
      1.3610E+07    4.4366E-07
      1.3620E+07    4.6381E-07
      1.3630E+07    4.8441E-07
      1.3640E+07    5.0543E-07
      1.3650E+07    5.2685E-07
      1.3660E+07    5.4864E-07
      1.3670E+07    5.7078E-07
      1.3680E+07    5.9323E-07
      1.3690E+07    6.1595E-07
      1.3700E+07    6.3893E-07
      1.3710E+07    6.6211E-07
      1.3720E+07    6.8547E-07
      1.3730E+07    7.0896E-07
      1.3740E+07    7.3254E-07
      1.3750E+07    7.5616E-07
      1.3760E+07    7.7978E-07
      1.3770E+07    8.0336E-07
      1.3780E+07    8.2684E-07
      1.3790E+07    8.5017E-07
      1.3800E+07    8.7331E-07
      1.3810E+07    8.9621E-07
      1.3820E+07    9.1881E-07
      1.3830E+07    9.4105E-07
      1.3840E+07    9.6290E-07
      1.3850E+07    9.8429E-07
      1.3860E+07    1.0052E-06
      1.3870E+07    1.0255E-06
      1.3880E+07    1.0452E-06
      1.3890E+07    1.0643E-06
      1.3900E+07    1.0826E-06
      1.3910E+07    1.1002E-06
      1.3920E+07    1.1170E-06
      1.3930E+07    1.1329E-06
      1.3940E+07    1.1479E-06
      1.3950E+07    1.1620E-06
      1.3960E+07    1.1752E-06
      1.3970E+07    1.1873E-06
      1.3980E+07    1.1983E-06
      1.3990E+07    1.2083E-06
      1.4000E+07    1.2172E-06
      1.4010E+07    1.2250E-06
      1.4020E+07    1.2316E-06
      1.4030E+07    1.2370E-06
      1.4040E+07    1.2412E-06
      1.4050E+07    1.2443E-06
      1.4060E+07    1.2461E-06
      1.4070E+07    1.2467E-06
      1.4080E+07    1.2461E-06
      1.4090E+07    1.2443E-06
      1.4100E+07    1.2412E-06
      1.4110E+07    1.2370E-06
      1.4120E+07    1.2316E-06
      1.4130E+07    1.2250E-06
      1.4140E+07    1.2172E-06
      1.4150E+07    1.2083E-06
      1.4160E+07    1.1983E-06
      1.4170E+07    1.1873E-06
      1.4180E+07    1.1752E-06
      1.4190E+07    1.1620E-06
      1.4200E+07    1.1479E-06
      1.4210E+07    1.1329E-06
      1.4220E+07    1.1170E-06
      1.4230E+07    1.1002E-06
      1.4240E+07    1.0826E-06
      1.4250E+07    1.0643E-06
      1.4260E+07    1.0452E-06
      1.4270E+07    1.0255E-06
      1.4280E+07    1.0052E-06
      1.4290E+07    9.8429E-07
      1.4300E+07    9.6290E-07
      1.4310E+07    9.4105E-07
      1.4320E+07    9.1881E-07
      1.4330E+07    8.9621E-07
      1.4340E+07    8.7331E-07
      1.4350E+07    8.5017E-07
      1.4360E+07    8.2684E-07
      1.4370E+07    8.0336E-07
      1.4380E+07    7.7978E-07
      1.4390E+07    7.5616E-07
      1.4400E+07    7.3254E-07
      1.4410E+07    7.0896E-07
      1.4420E+07    6.8547E-07
      1.4430E+07    6.6211E-07
      1.4440E+07    6.3893E-07
      1.4450E+07    6.1595E-07
      1.4460E+07    5.9323E-07
      1.4470E+07    5.7078E-07
      1.4480E+07    5.4864E-07
      1.4490E+07    5.2685E-07
      1.4500E+07    5.0543E-07
      1.4510E+07    4.8441E-07
      1.4520E+07    4.6381E-07
      1.4530E+07    4.4366E-07
      1.4540E+07    4.2396E-07
      1.4550E+07    4.0474E-07
      1.4560E+07    3.8602E-07
      1.4570E+07    3.6780E-07
      1.4580E+07    3.5010E-07
      1.4590E+07    3.3293E-07
      1.4600E+07    3.1629E-07
      1.4610E+07    3.0019E-07
      1.4620E+07    2.8463E-07
      1.4630E+07    2.6962E-07
      1.4640E+07    2.5514E-07
      1.4650E+07    2.4121E-07
      1.4660E+07    2.2782E-07
      1.4670E+07    2.1496E-07
      1.4680E+07    2.0262E-07
      1.4690E+07    1.9081E-07
      1.4700E+07    1.7952E-07
      1.4710E+07    1.6872E-07
      1.4720E+07    1.5842E-07
      1.4730E+07    1.4861E-07
      1.4740E+07    1.3926E-07
      1.4750E+07    1.3038E-07
      1.4760E+07    1.2194E-07
      1.4770E+07    1.1394E-07
      1.4780E+07    1.0636E-07
      1.4790E+07    9.9186E-08
      1.4800E+07    9.2407E-08
      1.4810E+07    8.6007E-08
      1.4820E+07    7.9971E-08
      1.4830E+07    7.4287E-08
      1.4840E+07    6.8940E-08
      1.4850E+07    6.3915E-08
      1.4860E+07    5.9198E-08
      1.4870E+07    5.4776E-08
      1.4880E+07    5.0635E-08
      1.4890E+07    4.6761E-08
      1.4900E+07    4.3141E-08
      1.4910E+07    3.9763E-08
      1.4920E+07    3.6614E-08
      1.4930E+07    3.3681E-08
      1.4940E+07    3.0952E-08
      1.4950E+07    2.8417E-08
      1.4960E+07    2.6065E-08
      1.4970E+07    2.3883E-08
      1.4980E+07    2.1863E-08
      1.4990E+07    1.9994E-08
      1.5000E+07    1.8267E-08
      1.5010E+07    1.6673E-08
      1.5020E+07    1.5203E-08
      1.5030E+07    1.3850E-08
      1.5040E+07    1.2604E-08
      1.5050E+07    1.1459E-08
      1.5060E+07    1.0408E-08
      1.5070E+07    9.4446E-09
      1.5080E+07    8.5617E-09
      1.5090E+07    7.7537E-09
      1.5100E+07    7.0152E-09
      1.5110E+07    6.3408E-09
      1.5120E+07    5.7256E-09
      1.5130E+07    5.1651E-09
      1.5140E+07    4.6549E-09
      1.5150E+07    4.1910E-09
      1.5160E+07    3.7696E-09
      1.5170E+07    3.3873E-09
      1.5180E+07    3.0409E-09
      1.5190E+07    2.7271E-09
      1.5200E+07    2.4434E-09
      1.5210E+07    2.1870E-09
      1.5220E+07    1.9557E-09
      1.5230E+07    1.7471E-09
      1.5240E+07    1.5592E-09
      1.5250E+07    1.3902E-09
      1.5260E+07    1.2383E-09
      1.5270E+07    1.1019E-09
      1.5280E+07    9.7954E-10
      1.5290E+07    8.6994E-10
      1.5300E+07    7.7186E-10
      1.5310E+07    6.8416E-10
      1.5320E+07    6.0584E-10
      1.5330E+07    5.3596E-10
      1.5340E+07    4.7367E-10
      1.5350E+07    4.1822E-10
      1.5360E+07    3.6890E-10
      1.5370E+07    3.2507E-10
      1.5380E+07    2.8618E-10
      1.5390E+07    2.5169E-10
      1.5400E+07    2.2114E-10
      1.5410E+07    1.9411E-10
      1.5420E+07    1.7022E-10
      1.5430E+07    1.4912E-10
      1.5440E+07    1.3051E-10
      1.5450E+07    1.1411E-10
      1.5460E+07    9.9676E-11
      1.5470E+07    8.6981E-11
      1.5480E+07    7.5829E-11
      1.5490E+07    6.6043E-11
      1.5500E+07    5.7463E-11
      1.5510E+07    4.9949E-11
      1.5520E+07    4.3375E-11
      1.5530E+07    3.7630E-11
      1.5540E+07    3.2614E-11
      1.5550E+07    2.8239E-11
      1.5560E+07    2.4427E-11
      1.5570E+07    2.1109E-11
      1.5580E+07    1.8223E-11
      1.5590E+07    1.5717E-11
      1.5600E+07    1.3542E-11
